# Be at 1 bar, Solid
# Atomic Number: 4
# Atomic Mass: 9.0121831
# Source: nist.gov
# Data last reviewed in September, 1983
# Unit Conversion Factors: 1 J/mol*K = 0.1203 kB/atom   |   1 kJ/mol = 1/10.3644 meV/atom
# Temperature (K)	Entropy (kB/atom)	Enthalpy (meV/atom)	Entropy (J/mol*K)	Enthalpy(kJ/mol)
298.0			1.1342			-0.0000			9.43			-0.0
300.0			1.1474			0.3109			9.54			0.03
400.0			1.7824			19.3812			14.82			1.87
500.0			2.3453			41.1462			19.5			3.97
600.0			2.8420			64.6730			23.63			6.24
700.0			3.2846			89.4437			27.31			8.63
800.0			3.6863			115.3543		30.65			11.13
900.0			4.0532			142.1978		33.7			13.72
1000.0			4.3935			170.0777		36.53			16.41
1100.0			4.7111			198.7867		39.17			19.18
1200.0			5.0093			228.4285		41.65			22.04
1300.0			5.2932			258.8995		44.01			24.98
1400.0			5.5638			290.3032		46.26			28.01
1500.0			5.8224			322.6397		48.41			31.13
1527.0			6.4298			402.5483		53.46			38.84
