# Temperature C S G/T H-H298.15
# Data last reviewed in September, 1983
298.     16.37     9.43     9.44     -0.00
300.     16.47     9.54     9.44     0.03
400.     19.96     14.82     10.14     1.87
500.     21.94     19.50     11.55     3.97
600.     23.34     23.63     13.23     6.24
700.     24.46     27.31     14.98     8.63
800.     25.46     30.65     16.73     11.13
900.     26.38     33.70     18.45     13.72
1000.     27.27     36.53     20.12     16.41
1100.     28.15     39.17     21.73     19.18
1200.     29.02     41.65     23.29     22.04
1300.     29.89     44.01     24.79     24.98
1400.     30.76     46.26     26.25     28.01
1500.     31.65     48.41     27.65     31.13
# Data last reviewed in September, 1983
1527.     30.00     53.46     28.03     38.84
