# Temperature C S G/T H-H298.15
# «alpha» phase; Data last reviewed in March, 1979
298.     25.70     43.55     43.56     -0.00
300.     25.72     43.72     43.56     0.05
400.     26.72     51.26     44.58     2.67
500.     27.68     57.32     46.55     5.39
600.     28.59     62.45     48.78     8.20
700.     29.47     66.93     51.06     11.11
800.     30.33     70.92     53.30     14.10
900.     31.16     74.54     55.46     17.17
1000.     31.97     77.86     57.53     20.33
1100.     32.76     80.95     59.52     23.57
1200.     33.53     83.83     61.43     26.88
1300.     34.29     86.55     63.26     30.27
1400.     35.03     89.11     65.02     33.74
1500.     35.76     91.56     66.70     37.28
1600.     36.48     93.89     68.33     40.89
1700.     37.19     96.12     69.90     44.57
1800.     37.89     98.26     71.42     48.33
1900.     38.59     100.3     72.88     52.15
2000.     39.28     102.3     74.31     56.04
2100.     39.97     104.3     75.69     60.01
2200.     40.67     106.1     77.03     64.04
2300.     41.36     108.0     78.33     68.14
2400.     42.06     109.7     79.61     72.31
2500.     42.77     111.5     80.85     76.55
