# Si at 1 bar, Solid
# Atomic Number: 14
# Atomic Mass: 28.085
# Source: nist.gov
# Data last reviewed in March, 1967
# Unit Conversion Factors: 1 J/mol*K = 0.1203 kB/atom   |   1 kJ/mol = 1/10.3644 meV/atom
# Temperature (K)	Entropy (kB/atom)	Enthalpy (meV/atom)	Entropy (J/mol*K)	Enthalpy(kJ/mol)
298.0			2.2623			-0.0000			18.81			-0.0
300.0			2.2780			0.4146			18.94			0.04
400.0			3.0104			22.3868			25.03			2.16
500.0			3.6214			46.0174			30.11			4.44
600.0			4.1422			70.5807			34.44			6.81
700.0			4.5968			95.9731			38.22			9.26
800.0			4.9985			121.9875		41.56			11.77
900.0			5.3617			148.5200		44.58			14.33
1000.0			5.6925			175.5707		47.33			16.94
1100.0			5.9968			203.0361		49.86			19.59
1200.0			6.2794			231.0196		52.21			22.29
1300.0			6.5428			259.5213		54.4			25.04
1400.0			6.7906			288.3340		56.46			27.82
1500.0			7.0251			317.5612		58.41			30.64
1600.0			7.2476			347.3067		60.26			33.51
