# Temperature C S G/T H-H298.15
# Data last reviewed in March, 1967
298.     19.99     18.81     18.82     -0.00
300.     20.05     18.94     18.82     0.04
400.     22.15     25.03     19.64     2.16
500.     23.34     30.11     21.24     4.44
600.     24.15     34.44     23.09     6.81
700.     24.80     38.22     24.98     9.26
800.     25.35     41.56     26.85     11.77
900.     25.85     44.58     28.66     14.33
1000.     26.32     47.33     30.39     16.94
1100.     26.77     49.86     32.04     19.59
1200.     27.20     52.21     33.63     22.29
1300.     27.63     54.40     35.14     25.04
1400.     28.05     56.46     36.59     27.82
1500.     28.46     58.41     37.98     30.64
1600.     28.88     60.26     39.32     33.51
