# Temperature C S G/T H-H298.15
# «beta» phase; Data last reviewed in June, 1979
298.     23.94     38.10     38.11     -0.00
300.     23.95     38.26     38.11     0.04
400.     24.70     45.26     39.06     2.48
500.     25.29     50.84     40.88     4.98
600.     25.83     55.50     42.94     7.54
700.     26.37     59.52     45.03     10.15
800.     26.91     63.08     47.06     12.81
900.     27.48     66.28     49.02     15.53
1000.     28.10     69.21     50.90     18.31
1100.     28.76     71.91     52.69     21.15
1200.     29.49     74.45     54.40     24.06
1300.     30.29     76.84     56.03     27.05
1400.     31.18     79.12     57.60     30.12
1500.     32.16     81.30     59.11     33.29
1600.     33.24     83.41     60.56     36.56
1700.     34.43     85.46     61.96     39.94
1800.     35.75     87.47     63.33     43.45
1900.     37.20     89.44     64.65     47.10
