# Temperature C S G/T H-H298.15
# Data last reviewed in June, 1973
298.     24.94     28.92     28.95     -0.01
300.     24.97     29.09     28.95     0.04
400.     26.14     36.45     29.94     2.60
500.     26.90     42.37     31.85     5.26
600.     27.53     47.33     34.03     7.98
700.     28.14     51.62     36.24     10.76
800.     28.77     55.42     38.41     13.61
900.     29.43     58.84     40.49     16.52
1000.     30.14     61.98     42.48     19.50
1100.     30.91     64.89     44.39     22.55
1200.     31.74     67.61     46.21     25.68
1300.     32.64     70.19     47.96     28.90
1400.     33.62     72.64     49.64     32.21
1500.     34.66     75.00     51.25     35.62
1600.     35.79     77.27     52.80     39.15
1700.     37.00     79.48     54.31     42.78
1800.     38.29     81.63     55.77     46.55
1900.     39.67     83.73     57.18     50.45
2000.     41.14     85.80     58.56     54.48
2100.     42.70     87.85     59.91     58.68
