# Temperature C S G/T H-H298.15
# «alpha» phase; Data last reviewed in June, 1979
298.     25.19     38.86     38.87     -0.00
300.     25.21     39.02     38.87     0.05
400.     25.95     46.39     39.87     2.61
500.     26.56     52.24     41.78     5.23
600.     27.24     57.14     43.94     7.92
700.     28.05     61.40     46.14     10.69
800.     28.98     65.21     48.29     13.54
900.     30.02     68.68     50.36     16.48
1000.     31.14     71.90     52.36     19.54
1100.     32.31     74.92     54.27     22.71
1200.     33.50     77.78     56.11     26.00
1300.     34.67     80.51     57.89     29.41
1400.     35.80     83.12     59.60     32.94
1500.     36.84     85.63     61.25     36.57
1600.     37.76     88.04     62.85     40.30
1700.     38.53     90.35     64.40     44.12
